  FREQ   SOLAR IRRADIANCE  SOLAR CONSTANT FOR THIS SET (W/M**2) = 1368.00
 (CM-1)  (W CM-2 / CM-1)   (PLEASE DO NOT EDIT THIS FILE)
     50    7.979E-10
     51    7.979E-10
     52    7.979E-10
     53    7.979E-10
     54    8.247E-10
     55    8.520E-10
     56    8.798E-10
     57    9.082E-10
     58    9.370E-10
     59    9.663E-10
     60    9.962E-10
     61    1.027E-09
     62    1.057E-09
     63    1.089E-09
     64    1.121E-09
     65    1.153E-09
     66    1.186E-09
     67    1.219E-09
     68    1.253E-09
     69    1.288E-09
     70    1.323E-09
     71    1.358E-09
     72    1.394E-09
     73    1.431E-09
     74    1.468E-09
     75    1.505E-09
     76    1.543E-09
     77    1.582E-09
     78    1.621E-09
     79    1.660E-09
     80    1.700E-09
     81    1.741E-09
     82    1.782E-09
     83    1.824E-09
     84    1.866E-09
     85    1.908E-09
     86    1.951E-09
     87    1.995E-09
     88    2.039E-09
     89    2.084E-09
     90    2.129E-09
     91    2.174E-09
     92    2.221E-09
     93    2.267E-09
     94    2.315E-09
     95    2.362E-09
     96    2.411E-09
     97    2.459E-09
     98    2.509E-09
     99    2.558E-09
    100    2.608E-09
    101    2.659E-09
    102    2.709E-09
    103    2.761E-09
    104    2.813E-09
    105    2.866E-09
    106    2.919E-09
    107    2.972E-09
    108    3.026E-09
    109    3.081E-09
    110    3.136E-09
    111    3.191E-09
    112    3.247E-09
    113    3.304E-09
    114    3.361E-09
    115    3.419E-09
    116    3.477E-09
    117    3.535E-09
    118    3.594E-09
    119    3.654E-09
    120    3.714E-09
    121    3.775E-09
    122    3.836E-09
    123    3.898E-09
    124    3.960E-09
    125    4.022E-09
    126    4.085E-09
    127    4.149E-09
    128    4.213E-09
    129    4.278E-09
    130    4.343E-09
    131    4.409E-09
    132    4.475E-09
    133    4.542E-09
    134    4.609E-09
    135    4.677E-09
    136    4.745E-09
    137    4.814E-09
    138    4.883E-09
    139    4.953E-09
    140    5.024E-09
    141    5.094E-09
    142    5.166E-09
    143    5.237E-09
    144    5.310E-09
    145    5.382E-09
    146    5.456E-09
    147    5.530E-09
    148    5.604E-09
    149    5.679E-09
    150    5.754E-09
    151    5.830E-09
    152    5.907E-09
    153    5.984E-09
    154    6.061E-09
    155    6.139E-09
    156    6.217E-09
    157    6.296E-09
    158    6.376E-09
    159    6.455E-09
    160    6.536E-09
    161    6.617E-09
    162    6.699E-09
    163    6.781E-09
    164    6.863E-09
    165    6.946E-09
    166    7.030E-09
    167    7.113E-09
    168    7.198E-09
    169    7.283E-09
    170    7.369E-09
    171    7.455E-09
    172    7.542E-09
    173    7.629E-09
    174    7.716E-09
    175    7.804E-09
    176    7.893E-09
    177    7.981E-09
    178    8.071E-09
    179    8.161E-09
    180    8.252E-09
    181    8.343E-09
    182    8.435E-09
    183    8.527E-09
    184    8.619E-09
    185    8.712E-09
    186    8.806E-09
    187    8.900E-09
    188    8.995E-09
    189    9.090E-09
    190    9.186E-09
    191    9.282E-09
    192    9.379E-09
    193    9.476E-09
    194    9.573E-09
    195    9.672E-09
    196    9.770E-09
    197    9.870E-09
    198    9.970E-09
    199    1.007E-08
    200    1.017E-08
    201    1.027E-08
    202    1.037E-08
    203    1.047E-08
    204    1.058E-08
    205    1.068E-08
    206    1.079E-08
    207    1.089E-08
    208    1.100E-08
    209    1.111E-08
    210    1.121E-08
    211    1.132E-08
    212    1.143E-08
    213    1.153E-08
    214    1.164E-08
    215    1.175E-08
    216    1.186E-08
    217    1.197E-08
    218    1.208E-08
    219    1.219E-08
    220    1.230E-08
    221    1.242E-08
    222    1.253E-08
    223    1.264E-08
    224    1.275E-08
    225    1.287E-08
    226    1.298E-08
    227    1.310E-08
    228    1.321E-08
    229    1.333E-08
    230    1.344E-08
    231    1.356E-08
    232    1.368E-08
    233    1.380E-08
    234    1.392E-08
    235    1.404E-08
    236    1.416E-08
    237    1.427E-08
    238    1.439E-08
    239    1.451E-08
    240    1.464E-08
    241    1.476E-08
    242    1.488E-08
    243    1.500E-08
    244    1.512E-08
    245    1.525E-08
    246    1.537E-08
    247    1.550E-08
    248    1.563E-08
    249    1.575E-08
    250    1.588E-08
    251    1.601E-08
    252    1.613E-08
    253    1.626E-08
    254    1.639E-08
    255    1.652E-08
    256    1.664E-08
    257    1.677E-08
    258    1.690E-08
    259    1.703E-08
    260    1.717E-08
    261    1.730E-08
    262    1.744E-08
    263    1.757E-08
    264    1.770E-08
    265    1.784E-08
    266    1.797E-08
    267    1.810E-08
    268    1.824E-08
    269    1.837E-08
    270    1.851E-08
    271    1.864E-08
    272    1.878E-08
    273    1.892E-08
    274    1.906E-08
    275    1.920E-08
    276    1.934E-08
    277    1.948E-08
    278    1.962E-08
    279    1.976E-08
    280    1.990E-08
    281    2.004E-08
    282    2.019E-08
    283    2.033E-08
    284    2.047E-08
    285    2.062E-08
    286    2.076E-08
    287    2.091E-08
    288    2.106E-08
    289    2.120E-08
    290    2.135E-08
    291    2.149E-08
    292    2.164E-08
    293    2.179E-08
    294    2.193E-08
    295    2.208E-08
    296    2.223E-08
    297    2.238E-08
    298    2.253E-08
    299    2.268E-08
    300    2.283E-08
    301    2.299E-08
    302    2.314E-08
    303    2.329E-08
    304    2.345E-08
    305    2.360E-08
    306    2.375E-08
    307    2.391E-08
    308    2.406E-08
    309    2.422E-08
    310    2.437E-08
    311    2.453E-08
    312    2.469E-08
    313    2.485E-08
    314    2.501E-08
    315    2.517E-08
    316    2.533E-08
    317    2.548E-08
    318    2.564E-08
    319    2.580E-08
    320    2.596E-08
    321    2.613E-08
    322    2.629E-08
    323    2.645E-08
    324    2.661E-08
    325    2.678E-08
    326    2.694E-08
    327    2.711E-08
    328    2.728E-08
    329    2.744E-08
    330    2.761E-08
    331    2.777E-08
    332    2.794E-08
    333    2.810E-08
    334    2.827E-08
    335    2.844E-08
    336    2.861E-08
    337    2.878E-08
    338    2.895E-08
    339    2.912E-08
    340    2.930E-08
    341    2.947E-08
    342    2.964E-08
    343    2.981E-08
    344    2.998E-08
    345    3.015E-08
    346    3.033E-08
    347    3.050E-08
    348    3.068E-08
    349    3.085E-08
    350    3.103E-08
    351    3.120E-08
    352    3.138E-08
    353    3.156E-08
    354    3.174E-08
    355    3.192E-08
    356    3.210E-08
    357    3.228E-08
    358    3.245E-08
    359    3.263E-08
    360    3.281E-08
    361    3.299E-08
    362    3.317E-08
    363    3.336E-08
    364    3.354E-08
    365    3.373E-08
    366    3.391E-08
    367    3.410E-08
    368    3.428E-08
    369    3.447E-08
    370    3.465E-08
    371    3.484E-08
    372    3.502E-08
    373    3.521E-08
    374    3.540E-08
    375    3.558E-08
    376    3.577E-08
    377    3.596E-08
    378    3.615E-08
    379    3.634E-08
    380    3.654E-08
    381    3.673E-08
    382    3.692E-08
    383    3.711E-08
    384    3.730E-08
    385    3.750E-08
    386    3.769E-08
    387    3.788E-08
    388    3.807E-08
    389    3.827E-08
    390    3.846E-08
    391    3.866E-08
    392    3.886E-08
    393    3.905E-08
    394    3.925E-08
    395    3.945E-08
    396    3.965E-08
    397    3.985E-08
    398    4.005E-08
    399    4.025E-08
    400    4.045E-08
    401    4.065E-08
    402    4.085E-08
    403    4.105E-08
    404    4.125E-08
    405    4.146E-08
    406    4.166E-08
    407    4.187E-08
    408    4.207E-08
    409    4.228E-08
    410    4.248E-08
    411    4.269E-08
    412    4.289E-08
    413    4.310E-08
    414    4.330E-08
    415    4.351E-08
    416    4.372E-08
    417    4.393E-08
    418    4.414E-08
    419    4.435E-08
    420    4.456E-08
    421    4.477E-08
    422    4.498E-08
    423    4.519E-08
    424    4.540E-08
    425    4.561E-08
    426    4.583E-08
    427    4.604E-08
    428    4.626E-08
    429    4.647E-08
    430    4.669E-08
    431    4.690E-08
    432    4.712E-08
    433    4.733E-08
    434    4.755E-08
    435    4.777E-08
    436    4.798E-08
    437    4.820E-08
    438    4.842E-08
    439    4.865E-08
    440    4.887E-08
    441    4.909E-08
    442    4.931E-08
    443    4.953E-08
    444    4.975E-08
    445    4.997E-08
    446    5.019E-08
    447    5.041E-08
    448    5.063E-08
    449    5.086E-08
    450    5.109E-08
    451    5.132E-08
    452    5.154E-08
    453    5.177E-08
    454    5.199E-08
    455    5.222E-08
    456    5.244E-08
    457    5.267E-08
    458    5.290E-08
    459    5.313E-08
    460    5.336E-08
    461    5.359E-08
    462    5.382E-08
    463    5.405E-08
    464    5.428E-08
    465    5.451E-08
    466    5.475E-08
    467    5.498E-08
    468    5.521E-08
    469    5.545E-08
    470    5.568E-08
    471    5.592E-08
    472    5.615E-08
    473    5.639E-08
    474    5.662E-08
    475    5.686E-08
    476    5.709E-08
    477    5.733E-08
    478    5.757E-08
    479    5.781E-08
    480    5.805E-08
    481    5.829E-08
    482    5.853E-08
    483    5.877E-08
    484    5.901E-08
    485    5.925E-08
    486    5.949E-08
    487    5.974E-08
    488    5.998E-08
    489    6.023E-08
    490    6.047E-08
    491    6.072E-08
    492    6.096E-08
    493    6.120E-08
    494    6.145E-08
    495    6.169E-08
    496    6.194E-08
    497    6.219E-08
    498    6.245E-08
    499    6.270E-08
    500    6.295E-08
    501    6.321E-08
    502    6.346E-08
    503    6.371E-08
    504    6.396E-08
    505    6.421E-08
    506    6.446E-08
    507    6.472E-08
    508    6.497E-08
    509    6.523E-08
    510    6.548E-08
    511    6.573E-08
    512    6.599E-08
    513    6.624E-08
    514    6.650E-08
    515    6.676E-08
    516    6.701E-08
    517    6.727E-08
    518    6.753E-08
    519    6.779E-08
    520    6.804E-08
    521    6.830E-08
    522    6.856E-08
    523    6.880E-08
    524    6.906E-08
    525    6.932E-08
    526    6.958E-08
    527    6.985E-08
    528    7.013E-08
    529    7.039E-08
    530    7.066E-08
    531    7.092E-08
    532    7.118E-08
    533    7.145E-08
    534    7.171E-08
    535    7.198E-08
    536    7.225E-08
    537    7.251E-08
    538    7.278E-08
    539    7.305E-08
    540    7.332E-08
    541    7.358E-08
    542    7.385E-08
    543    7.412E-08
    544    7.439E-08
    545    7.466E-08
    546    7.493E-08
    547    7.521E-08
    548    7.548E-08
    549    7.575E-08
    550    7.602E-08
    551    7.630E-08
    552    7.657E-08
    553    7.685E-08
    554    7.712E-08
    555    7.739E-08
    556    7.767E-08
    557    7.795E-08
    558    7.822E-08
    559    7.850E-08
    560    7.878E-08
    561    7.906E-08
    562    7.934E-08
    563    7.961E-08
    564    7.989E-08
    565    8.017E-08
    566    8.045E-08
    567    8.073E-08
    568    8.101E-08
    569    8.130E-08
    570    8.158E-08
    571    8.186E-08
    572    8.215E-08
    573    8.243E-08
    574    8.272E-08
    575    8.300E-08
    576    8.329E-08
    577    8.357E-08
    578    8.386E-08
    579    8.414E-08
    580    8.443E-08
    581    8.472E-08
    582    8.500E-08
    583    8.529E-08
    584    8.558E-08
    585    8.587E-08
    586    8.616E-08
    587    8.645E-08
    588    8.675E-08
    589    8.704E-08
    590    8.733E-08
    591    8.762E-08
    592    8.791E-08
    593    8.820E-08
    594    8.849E-08
    595    8.879E-08
    596    8.909E-08
    597    8.938E-08
    598    8.968E-08
    599    8.997E-08
    600    9.027E-08
    601    9.057E-08
    602    9.087E-08
    603    9.116E-08
    604    9.146E-08
    605    9.176E-08
    606    9.206E-08
    607    9.236E-08
    608    9.266E-08
    609    9.296E-08
    610    9.326E-08
    611    9.356E-08
    612    9.386E-08
    613    9.417E-08
    614    9.447E-08
    615    9.476E-08
    616    9.506E-08
    617    9.537E-08
    618    9.567E-08
    619    9.598E-08
    620    9.629E-08
    621    9.660E-08
    622    9.691E-08
    623    9.722E-08
    624    9.753E-08
    625    9.784E-08
    626    9.814E-08
    627    9.845E-08
    628    9.876E-08
    629    9.907E-08
    630    9.938E-08
    631    9.969E-08
    632    1.000E-07
    633    1.003E-07
    634    1.006E-07
    635    1.010E-07
    636    1.013E-07
    637    1.016E-07
    638    1.019E-07
    639    1.022E-07
    640    1.026E-07
    641    1.029E-07
    642    1.032E-07
    643    1.035E-07
    644    1.038E-07
    645    1.041E-07
    646    1.044E-07
    647    1.048E-07
    648    1.051E-07
    649    1.054E-07
    650    1.057E-07
    651    1.060E-07
    652    1.063E-07
    653    1.067E-07
    654    1.070E-07
    655    1.073E-07
    656    1.076E-07
    657    1.079E-07
    658    1.083E-07
    659    1.086E-07
    660    1.089E-07
    661    1.092E-07
    662    1.096E-07
    663    1.099E-07
    664    1.102E-07
    665    1.105E-07
    666    1.109E-07
    667    1.112E-07
    668    1.115E-07
    669    1.118E-07
    670    1.122E-07
    671    1.125E-07
    672    1.128E-07
    673    1.131E-07
    674    1.135E-07
    675    1.138E-07
    676    1.141E-07
    677    1.145E-07
    678    1.148E-07
    679    1.151E-07
    680    1.155E-07
    681    1.158E-07
    682    1.161E-07
    683    1.165E-07
    684    1.168E-07
    685    1.172E-07
    686    1.175E-07
    687    1.179E-07
    688    1.182E-07
    689    1.186E-07
    690    1.189E-07
    691    1.192E-07
    692    1.196E-07
    693    1.199E-07
    694    1.203E-07
    695    1.206E-07
    696    1.209E-07
    697    1.213E-07
    698    1.216E-07
    699    1.220E-07
    700    1.223E-07
    701    1.226E-07
    702    1.230E-07
    703    1.233E-07
    704    1.237E-07
    705    1.240E-07
    706    1.243E-07
    707    1.247E-07
    708    1.250E-07
    709    1.254E-07
    710    1.257E-07
    711    1.261E-07
    712    1.264E-07
    713    1.268E-07
    714    1.271E-07
    715    1.275E-07
    716    1.278E-07
    717    1.282E-07
    718    1.285E-07
    719    1.289E-07
    720    1.292E-07
    721    1.296E-07
    722    1.299E-07
    723    1.303E-07
    724    1.306E-07
    725    1.310E-07
    726    1.313E-07
    727    1.317E-07
    728    1.320E-07
    729    1.324E-07
    730    1.327E-07
    731    1.331E-07
    732    1.335E-07
    733    1.339E-07
    734    1.343E-07
    735    1.346E-07
    736    1.350E-07
    737    1.353E-07
    738    1.357E-07
    739    1.360E-07
    740    1.364E-07
    741    1.368E-07
    742    1.371E-07
    743    1.375E-07
    744    1.378E-07
    745    1.382E-07
    746    1.386E-07
    747    1.389E-07
    748    1.393E-07
    749    1.396E-07
    750    1.400E-07
    751    1.404E-07
    752    1.407E-07
    753    1.411E-07
    754    1.415E-07
    755    1.418E-07
    756    1.422E-07
    757    1.426E-07
    758    1.429E-07
    759    1.433E-07
    760    1.437E-07
    761    1.441E-07
    762    1.444E-07
    763    1.448E-07
    764    1.452E-07
    765    1.455E-07
    766    1.459E-07
    767    1.463E-07
    768    1.466E-07
    769    1.470E-07
    770    1.474E-07
    771    1.478E-07
    772    1.481E-07
    773    1.485E-07
    774    1.489E-07
    775    1.493E-07
    776    1.497E-07
    777    1.501E-07
    778    1.505E-07
    779    1.509E-07
    780    1.512E-07
    781    1.516E-07
    782    1.520E-07
    783    1.524E-07
    784    1.528E-07
    785    1.531E-07
    786    1.535E-07
    787    1.539E-07
    788    1.543E-07
    789    1.547E-07
    790    1.550E-07
    791    1.554E-07
    792    1.558E-07
    793    1.562E-07
    794    1.566E-07
    795    1.569E-07
    796    1.573E-07
    797    1.577E-07
    798    1.581E-07
    799    1.585E-07
    800    1.589E-07
    801    1.593E-07
    802    1.596E-07
    803    1.600E-07
    804    1.604E-07
    805    1.608E-07
    806    1.612E-07
    807    1.616E-07
    808    1.620E-07
    809    1.623E-07
    810    1.627E-07
    811    1.631E-07
    812    1.635E-07
    813    1.639E-07
    814    1.643E-07
    815    1.647E-07
    816    1.651E-07
    817    1.655E-07
    818    1.660E-07
    819    1.664E-07
    820    1.668E-07
    821    1.672E-07
    822    1.676E-07
    823    1.680E-07
    824    1.684E-07
    825    1.688E-07
    826    1.692E-07
    827    1.696E-07
    828    1.700E-07
    829    1.704E-07
    830    1.708E-07
    831    1.712E-07
    832    1.716E-07
    833    1.720E-07
    834    1.724E-07
    835    1.728E-07
    836    1.732E-07
    837    1.736E-07
    838    1.740E-07
    839    1.744E-07
    840    1.748E-07
    841    1.752E-07
    842    1.756E-07
    843    1.760E-07
    844    1.764E-07
    845    1.768E-07
    846    1.772E-07
    847    1.776E-07
    848    1.780E-07
    849    1.785E-07
    850    1.789E-07
    851    1.793E-07
    852    1.797E-07
    853    1.801E-07
    854    1.805E-07
    855    1.809E-07
    856    1.813E-07
    857    1.818E-07
    858    1.822E-07
    859    1.826E-07
    860    1.831E-07
    861    1.835E-07
    862    1.839E-07
    863    1.843E-07
    864    1.847E-07
    865    1.851E-07
    866    1.855E-07
    867    1.860E-07
    868    1.864E-07
    869    1.868E-07
    870    1.872E-07
    871    1.876E-07
    872    1.881E-07
    873    1.885E-07
    874    1.889E-07
    875    1.893E-07
    876    1.897E-07
    877    1.901E-07
    878    1.906E-07
    879    1.910E-07
    880    1.914E-07
    881    1.918E-07
    882    1.922E-07
    883    1.926E-07
    884    1.930E-07
    885    1.935E-07
    886    1.939E-07
    887    1.944E-07
    888    1.948E-07
    889    1.952E-07
    890    1.957E-07
    891    1.961E-07
    892    1.965E-07
    893    1.969E-07
    894    1.974E-07
    895    1.978E-07
    896    1.983E-07
    897    1.987E-07
    898    1.992E-07
    899    1.996E-07
    900    2.001E-07
    901    2.005E-07
    902    2.009E-07
    903    2.014E-07
    904    2.018E-07
    905    2.022E-07
    906    2.026E-07
    907    2.031E-07
    908    2.035E-07
    909    2.039E-07
    910    2.044E-07
    911    2.048E-07
    912    2.052E-07
    913    2.057E-07
    914    2.061E-07
    915    2.065E-07
    916    2.070E-07
    917    2.074E-07
    918    2.079E-07
    919    2.083E-07
    920    2.088E-07
    921    2.092E-07
    922    2.096E-07
    923    2.101E-07
    924    2.105E-07
    925    2.109E-07
    926    2.114E-07
    927    2.118E-07
    928    2.123E-07
    929    2.127E-07
    930    2.132E-07
    931    2.137E-07
    932    2.141E-07
    933    2.146E-07
    934    2.151E-07
    935    2.155E-07
    936    2.160E-07
    937    2.164E-07
    938    2.168E-07
    939    2.173E-07
    940    2.177E-07
    941    2.182E-07
    942    2.186E-07
    943    2.191E-07
    944    2.195E-07
    945    2.200E-07
    946    2.204E-07
    947    2.209E-07
    948    2.213E-07
    949    2.218E-07
    950    2.222E-07
    951    2.226E-07
    952    2.231E-07
    953    2.235E-07
    954    2.240E-07
    955    2.245E-07
    956    2.250E-07
    957    2.254E-07
    958    2.259E-07
    959    2.263E-07
    960    2.268E-07
    961    2.273E-07
    962    2.277E-07
    963    2.282E-07
    964    2.286E-07
    965    2.291E-07
    966    2.296E-07
    967    2.300E-07
    968    2.305E-07
    969    2.310E-07
    970    2.315E-07
    971    2.319E-07
    972    2.324E-07
    973    2.329E-07
    974    2.333E-07
    975    2.338E-07
    976    2.342E-07
    977    2.347E-07
    978    2.352E-07
    979    2.357E-07
    980    2.361E-07
    981    2.366E-07
    982    2.370E-07
    983    2.375E-07
    984    2.380E-07
    985    2.385E-07
    986    2.389E-07
    987    2.394E-07
    988    2.398E-07
    989    2.403E-07
    990    2.408E-07
    991    2.412E-07
    992    2.417E-07
    993    2.422E-07
    994    2.427E-07
    995    2.432E-07
